Number of frames: 250
Frequency: 50
Units: mm

Frame,finger x,finger y,finger z,palm x,palm y,palm z
1,621.713073730,-241.367645264,144.397720337,,,,
2,621.828186035,-241.344726563,144.470764160,,,,
3,621.952026367,-241.316986084,144.748046875,,,,
4,622.100341797,-241.304794312,144.977920532,,,,
5,622.266052246,-241.291778564,145.115707397,,,,
6,622.416381836,-241.270202637,145.231887817,,,,
7,622.536132813,-241.254089355,145.290802002,,,,
8,622.629821777,-241.260604858,145.224105835,,,,
9,622.674438477,-241.289154053,145.013854980,,,,
10,622.651306152,-241.313674927,144.773986816,,,,
11,622.675964355,-241.325973511,144.620391846,,,,
12,622.768859863,-241.340057373,144.556137085,,,,
13,622.882995605,-241.359527588,144.576400757,,,,
14,622.933166504,-241.378707886,144.536926270,,,,
15,622.939697266,-241.395309448,144.455795288,,,,
16,622.919616699,-241.419509888,144.307327271,,,,
17,622.876708984,-241.446060181,144.118209839,,,,
18,622.820922852,-241.465866089,144.014770508,,,,
19,622.757568359,-241.474212646,144.029922485,,,,
20,622.705139160,-241.479080200,144.103302002,,,,
21,622.654052734,-241.484298706,144.168487549,,,,
22,622.623291016,-241.484420776,144.276367188,,,,
23,622.596252441,-241.480484009,144.389877319,,,,
24,622.589782715,-241.480255127,144.446914673,,,,
25,622.591491699,-241.481918335,144.467330933,,,,
26,622.542907715,-241.487533569,144.454147339,,,,
27,622.522094727,-241.489181519,144.411407471,,,,
28,622.473022461,-241.495727539,144.367263794,,,,
29,622.441711426,-241.500701904,144.333465576,,,,
30,622.413757324,-241.504241943,144.263504028,,,,
31,622.387207031,-241.509796143,144.194427490,,,,
32,622.375244141,-241.518081665,144.093750000,,,,
33,622.407470703,-241.524108887,144.037734985,,,,
34,622.449401855,-241.530090332,144.044479370,,,,
35,622.472106934,-241.533142090,144.074020386,,,,
36,622.448059082,-241.539108276,144.034149170,,,,
37,622.401733398,-241.540954590,143.926681519,,,,
38,622.326721191,-241.552642822,143.790481567,,,,
39,622.313232422,-241.556854248,143.782669067,,,,
40,622.311279297,-241.560974121,143.771255493,,,,
41,622.325012207,-241.557449341,143.861892700,,,,
42,622.314025879,-241.554580688,143.910766602,,,,
43,622.268127441,-241.554534912,143.929183960,,,,
44,622.222839355,-241.562454224,143.935775757,,,,
45,622.225097656,-241.563964844,143.955688477,,,,
46,622.215698242,-241.568313599,143.913940430,,,,
47,622.170410156,-241.568099976,143.899139404,,,,
48,622.120666504,-241.571212769,143.832733154,,,,
49,622.052856445,-241.576889038,143.696197510,,,,
50,622.045715332,-241.580322266,143.641891479,,,,
51,622.031372070,-241.584243774,143.637878418,,,,
52,621.989379883,-241.587799072,143.667434692,,,,
53,621.983642578,-241.587554932,143.688735962,,,,
54,621.978576660,-241.586532593,143.674652100,,,,
55,621.987182617,-241.585113525,143.685882568,,,,
56,621.974670410,-241.584945679,143.675415039,,,,
57,621.949951172,-241.587997437,143.597915649,,,,
58,621.913574219,-241.592987061,143.434295654,,,,
59,621.925720215,-241.592926025,143.381988525,,,,
60,621.896423340,-241.593933105,143.380798340,,,,
61,621.865600586,-241.592086792,143.372375488,,,,
62,621.848632813,-241.590194702,143.356002808,,,,
63,621.845520020,-241.589218140,143.310623169,,,,
64,621.833557129,-241.589324951,143.269332886,,,,
65,621.799804688,-241.589645386,143.237228394,,,,
66,621.757690430,-241.590728760,143.166152954,,,,
67,621.717163086,-241.591888428,143.066238403,,,,
68,621.703491211,-241.590728760,143.048492432,,,,
69,621.685119629,-241.591461182,143.106506348,,,,
70,621.662597656,-241.589584351,143.183959961,,,,
71,621.625244141,-241.588516235,143.167373657,,,,
72,621.599182129,-241.584823608,143.135925293,,,,
73,621.610290527,-241.585510254,143.126678467,,,,
74,621.626403809,-241.587890625,143.187271118,,,,
75,621.632629395,-241.588180542,143.268341064,,,,
76,621.643127441,-241.585540771,143.303939819,,,,
77,621.664001465,-241.579208374,143.312240601,,,,
78,621.686462402,-241.579589844,143.339157104,,,,
79,621.699157715,-241.580673218,143.327301025,,,,
80,621.715026855,-241.580490112,143.327789307,,,,
81,621.708679199,-241.579147339,143.326660156,,,,
82,621.718261719,-241.575469971,143.323394775,,,,
83,621.714538574,-241.577438354,143.259674072,,,,
84,621.730712891,-241.579833984,143.171127319,,,,
85,621.727294922,-241.580749512,143.098419189,,,,
86,621.714233398,-241.579528809,143.062789917,,,,
87,621.685791016,-241.578414917,143.092895508,,,,
88,621.675354004,-241.574172974,143.150375366,,,,
89,621.657531738,-241.572692871,143.087249756,,,,
90,621.631469727,-241.573120117,142.964050293,,,,
91,621.598083496,-241.571014404,142.913848877,,,,
92,621.564575195,-241.570205688,142.933227539,,,,
93,621.507324219,-241.571624756,142.939376831,,,,
94,621.473632813,-241.566680908,142.952133179,,,,
95,621.465515137,-241.566528320,142.933166504,,,,
96,621.471069336,-241.565841675,142.933654785,,,,
97,621.481384277,-241.566375732,142.997329712,,,,
98,621.480224609,-241.564910889,143.025772095,,,,
99,621.519287109,-241.562713623,143.113494873,,,,
100,621.529785156,-241.562774658,143.156890869,,,,
101,621.496215820,-241.563949585,143.139495850,,,,
102,621.469360352,-241.560745239,143.139511108,,,,
103,621.458435059,-241.563064575,143.195480347,,,,
104,621.448974609,-241.562194824,143.200668335,,,,
105,621.428649902,-241.564025879,143.171218872,,,,
106,621.399230957,-241.564147949,143.157913208,,,,
107,621.384399414,-241.566558838,143.165802002,,,,
108,621.398193359,-241.561721802,143.225234985,,,,
109,621.418945313,-241.561004639,143.271011353,,,,
110,621.422668457,-241.558822632,143.286132813,,,,
111,621.391113281,-241.558486938,143.248977661,,,,
112,621.383544922,-241.554611206,143.279602051,,,,
113,621.397644043,-241.552871704,143.287094116,,,,
114,621.399719238,-241.555374146,143.249649048,,,,
115,621.404846191,-241.552947998,143.247863770,,,,
116,621.398376465,-241.550949097,143.311462402,,,,
117,621.359802246,-241.550476074,143.356842041,,,,
118,621.330688477,-241.547500610,143.384750366,,,,
119,621.349975586,-241.546325684,143.478271484,,,,
120,621.396179199,-241.541213989,143.621429443,,,,
121,621.416381836,-241.538024902,143.718917847,,,,
122,621.428710938,-241.531860352,143.786300659,,,,
123,621.429199219,-241.529708862,143.845870972,,,,
124,621.437561035,-241.529083252,143.831680298,,,,
125,621.438354492,-241.526824951,143.762390137,,,,
126,621.454833984,-241.524566650,143.757476807,,,,
127,621.432861328,-241.527282715,143.744796753,,,,
128,621.409851074,-241.528442383,143.715560913,,,,
129,621.358642578,-241.533279419,143.580749512,,,,
130,621.307800293,-241.534820557,143.419692993,,,,
131,621.299499512,-241.534362793,143.408660889,,,,
132,621.325256348,-241.532180786,143.485412598,,,,
133,621.365844727,-241.527816772,143.511779785,,,,
134,621.406860352,-241.525283813,143.406448364,,,,
135,621.419250488,-241.525039673,143.243133545,,,,
136,621.417907715,-241.526046753,143.163833618,,,,
137,621.382385254,-241.528564453,143.144027710,,,,
138,621.338562012,-241.528747559,143.007980347,,,,
139,621.304016113,-241.525009155,142.868530273,,,,
140,621.268676758,-241.519790649,142.826934814,,,,
141,621.238464355,-241.516387939,142.782989502,,,,
142,621.214965820,-241.515625000,142.752502441,,,,
143,621.197937012,-241.512924194,142.793655396,,,,
144,621.216430664,-241.510131836,142.934951782,,,,
145,621.257324219,-241.504455566,143.079971313,,,,
146,621.267028809,-241.501678467,143.109909058,,,,
147,621.282287598,-241.500778198,143.055953979,,,,
148,621.309631348,-241.502136230,143.024993896,,,,
149,621.297973633,-241.503509521,143.018402100,,,,
150,621.231140137,-241.505630493,143.031692505,,,,
151,621.167175293,-241.506576538,143.019515991,,,,
152,621.126281738,-241.509017944,143.009506226,,,,
153,621.134216309,-241.514556885,143.013748169,,,,
154,621.144592285,-241.530853271,143.009552002,,,,
155,621.140075684,-241.545120239,142.965026855,,,,
156,621.118530273,-241.551651001,142.869293213,,,,
157,621.135681152,-241.549423218,142.834854126,,,,
158,621.166625977,-241.547653198,142.930938721,,,,
159,621.219116211,-241.545471191,143.128677368,,,,
160,621.236511230,-241.540267944,143.231811523,,,,
161,621.220947266,-241.536453247,143.247406006,,,,
162,621.211730957,-241.541595459,143.257431030,,,,
163,621.199218750,-241.543899536,143.241790771,,,,
164,621.178100586,-241.542480469,143.177169800,,,,
165,621.156860352,-241.542556763,143.080139160,,,,
166,621.170715332,-241.543640137,143.015228271,,,,
167,621.176452637,-241.547515869,142.981018066,,,,
168,621.207336426,-241.546752930,142.969039917,,,,
169,621.210632324,-241.549728394,142.893630981,,,,
170,621.237182617,-241.550720215,142.823898315,,,,
171,621.239929199,-241.553451538,142.784973145,,,,
172,621.240722656,-241.556411743,142.771911621,,,,
173,621.234069824,-241.557083130,142.792190552,,,,
174,621.226562500,-241.554931641,142.778732300,,,,
175,621.212158203,-241.554443359,142.760223389,,,,
176,621.197021484,-241.553985596,142.734313965,,,,
177,621.154968262,-241.555160522,142.705703735,,,,
178,621.130004883,-241.554214478,142.718612671,,,,
179,621.099243164,-241.553314209,142.670074463,,,,
180,621.038635254,-241.555389404,142.561096191,,,,
181,621.006347656,-241.553604126,142.523391724,,,,
182,620.987060547,-241.555618286,142.464492798,,,,
183,620.992004395,-241.556335449,142.415344238,,,,
184,620.979125977,-241.557846069,142.368545532,,,,
185,620.957275391,-241.554183960,142.337738037,,,,
186,620.912414551,-241.551528931,142.287963867,,,,
187,620.866149902,-241.558792114,142.163009644,,,,
188,620.661560059,-241.622573853,141.935363770,,,,
189,620.304870605,-241.889190674,142.009323120,,,,
190,620.011352539,-245.099243164,143.930725098,,,,
191,619.789550781,-249.019729614,145.727081299,,,,
192,619.722473145,-251.432449341,146.878631592,,,,
193,619.743591309,-254.009552002,148.667404175,,,,
194,620.069702148,-257.145660400,152.431762695,,,,
195,620.272399902,-261.017822266,158.092880249,,,,
196,619.900390625,-265.875183105,165.531372070,,,,
197,618.827575684,-271.630157471,174.947311401,,,,
198,616.970886230,-277.972320557,185.664871216,,,,
199,614.786804199,-284.034484863,198.538085938,,,,
200,612.091369629,-290.012084961,213.326889038,,,,
201,608.341674805,-296.423522949,229.335098267,,,,
202,603.635864258,-303.085205078,246.776718140,,,,
203,598.460754395,-309.317626953,265.439727783,,,,
204,592.805786133,-314.429901123,285.034332275,674.225341797,-290.123016357,227.064285278,
205,587.056762695,-318.446899414,305.417816162,665.820922852,-294.919647217,244.167587280,
206,581.783630371,-321.317291260,326.240905762,657.902465820,-299.341064453,261.614318848,
207,576.912536621,-323.486572266,346.460327148,650.408874512,-303.103210449,278.688293457,
208,572.526184082,-325.713623047,365.176452637,643.531921387,-306.149291992,294.939575195,
209,568.608032227,-327.698577881,382.100006104,637.594970703,-308.650787354,309.962768555,
210,565.603393555,-329.127746582,397.811462402,632.447143555,-310.794494629,323.636749268,
211,562.813781738,-330.071716309,411.742431641,627.809997559,-312.509429932,335.839111328,
212,559.767028809,-330.701110840,423.391326904,623.627868652,-313.733886719,346.411376953,
213,557.023925781,-331.012481689,433.367736816,619.974975586,-314.562866211,355.499969482,
214,554.609924316,-331.020355225,442.017700195,616.672851563,-315.038909912,363.287475586,
215,552.626159668,-330.550506592,449.765899658,613.493896484,-315.190093994,369.986999512,
216,551.016174316,-329.429443359,456.789276123,610.686767578,-315.120056152,375.940948486,
217,549.424865723,-328.059265137,462.787597656,608.448059082,-314.914215088,381.235748291,
218,548.248718262,-327.274169922,467.837677002,606.627685547,-314.596649170,385.770019531,
219,547.512451172,-326.780242920,472.250488281,605.014038086,-314.178344727,389.563629150,
220,546.964355469,-326.255035400,476.194519043,603.581909180,-313.722381592,392.885650635,
221,546.760314941,-325.544708252,479.854736328,602.463623047,-313.287872314,395.923248291,
222,546.689941406,-324.876892090,483.099884033,601.621093750,-312.831939697,398.666290283,
223,546.667541504,-324.670959473,485.695281982,600.993041992,-312.362365723,400.957458496,
224,546.718933105,-325.093414307,487.558197021,600.603698730,-311.969573975,402.693359375,
225,546.961486816,-325.542510986,489.125732422,600.389709473,-311.724822998,404.073211670,
226,547.380676270,-325.811981201,490.691711426,600.300720215,-311.613677979,405.411590576,
227,547.891906738,-325.877136230,492.267730713,600.246582031,-311.577758789,406.682952881,
228,548.511962891,-325.725830078,493.752380371,600.196899414,-311.546936035,407.750549316,
229,548.953796387,-325.571197510,494.965209961,600.249816895,-311.514129639,408.694366455,
230,549.201965332,-325.528411865,495.869720459,600.364379883,-311.498474121,409.516143799,
231,548.891906738,-325.755401611,495.904083252,600.583740234,-311.460113525,409.894409180,
232,548.850402832,-325.778198242,495.923614502,600.545471191,-311.491729736,409.873168945,
233,548.752990723,-325.762908936,495.939056396,600.336853027,-311.593322754,409.800292969,
234,548.616210938,-325.815704346,495.939758301,600.109130859,-311.785430908,409.747497559,
235,548.556884766,-325.859832764,495.914764404,599.939025879,-312.040618896,409.609924316,
236,548.858581543,-325.899719238,495.883850098,599.854248047,-312.331237793,409.328155518,
237,549.166687012,-326.061950684,495.315490723,600.084960938,-312.650268555,408.711029053,
238,549.522338867,-326.744659424,493.692138672,600.651977539,-312.947784424,407.304901123,
239,550.314575195,-327.606353760,491.137329102,601.555419922,-313.271972656,404.893981934,
240,551.244262695,-328.632598877,487.498626709,602.671569824,-313.620361328,401.476562500,
241,552.072509766,-329.814788818,482.450897217,604.037719727,-314.003601074,396.890258789,
242,553.172546387,-331.278198242,475.675323486,605.928894043,-314.430480957,390.700988770,
243,554.827819824,-333.156036377,467.030548096,608.594726563,-314.848571777,382.792846680,
244,556.831176758,-335.099884033,456.945037842,611.856689453,-315.215240479,373.631286621,
245,559.135375977,-336.551116943,445.939636230,615.351257324,-315.490936279,363.481719971,
246,561.735656738,-337.240539551,433.844055176,619.282714844,-315.549377441,352.289916992,
247,564.729370117,-337.014862061,420.873382568,624.210266113,-315.216644287,340.366638184,
248,567.712463379,-335.985198975,407.383178711,629.536865234,-314.630615234,328.103881836,
249,571.095214844,-335.071136475,393.619415283,634.969787598,-313.873321533,315.680999756,
250,575.112915039,-334.389617920,379.482147217,640.775207520,-312.821319580,303.032867432,
